T(C),Psat(MPa)
-40,0.05164
-32,0.07704
-26,0.10199
-20,0.13299
-12,0.18540
0,0.29282
8,0.38756
16,0.50416
24,0.64566
28,0.72675
34,0.86247
38,0.96298
44,1.1299
52,1.3851
60,1.6813
70,2.1162
80,2.6324
90,3.2435
100,3.9742
